Time,Disp,Force,CrackExt,G_I
21,0,0,33.005,0
22,0.0847535000000001,5.68930701392454,33.005,0.000740287005960391
23,0.169256,7.52722770004908,33.005,0.00195597023144946
24,0.255309,10.0840165075852,33.005,0.003952599274306
25,0.3409065,12.5724033085724,33.005,0.00658016373315949
26,0.422634,14.8327171853648,33.005,0.00962428028578431
27,0.519401,16.2297826458823,33.005,0.0129419166696986
28,0.60706,19.1456871663585,33.005,0.0178437319268964
29,0.6911305,21.4879448151762,33.005,0.0228001683178975
30,0.7791095,23.8345584309434,33.005,0.0285094424731651
31,0.858466,26.5942813132122,33.005,0.0350505205168537
32,0.9461805,28.8722184055407,33.005,0.0419408532657831
33,1.0324155,31.3703706830754,33.005,0.0497229950882055
34,1.1127685,34.2157660049309,33.005,0.0584539958650672
35,1.196601,36.6342179466006,33.005,0.0673006719432366
36,1.2809085,39.3277241732262,33.005,0.0773392643826172
37,1.367552,41.9133734506782,33.005,0.0879993734552927
38,1.4473815,44.7448656826102,33.005,0.099428145710537
39,1.532139,47.3019357338211,33.005,0.111265415812073
40,1.6200435,50.2948718717109,33.005,0.12509314061925
41,1.6978755,52.5790616707892,32.84001099,0.137630076285673
42,1.7830915,55.0600076866793,32.74573155,0.151720112874663
43,1.8668275,57.8240890984826,32.79287127,0.166619815050941
44,1.9518595,60.2011759041578,32.8871507,0.180938024250969
45,2.035544,62.8950351268301,33.005,0.196553133811359
46,2.114416,65.6046947130978,32.98143014,0.213091831462829
47,2.200916,68.3643505410662,33.05213971,0.230727876703721
48,2.285012,70.8047125822077,33.47639717,0.245470394699655
49,2.368285,73.4035598116834,33.40568759,0.264220125847916
50,2.453711,75.54189615,33.47639717,0.281228780183834
51,2.538132,77.7984044816891,33.47639717,0.299594175992582
52,2.6248965,79.1878287416284,33.40568759,0.315926042729669
53,2.7071935,79.9414472204171,33.45282731,0.328545158623332
54,2.7954745,81.2543261133961,33.5706766,0.343819746495805
55,2.880858,82.5093248659673,33.78280533,0.357905276536306
56,2.963602,83.406981854881,33.6885259,0.373060979507339
57,3.0493205,84.5579875021849,33.71209575,0.388921049442497
58,3.132182,84.3306814314713,33.78280533,0.397718520039895
59,3.2182435,85.196312838,33.80637519,0.412600456720872
60,3.302061,85.002073079397,34.74916953,0.412757845445813
61,3.3864105,86.3749885278361,34.81987911,0.429404759886485
62,3.472627,85.9145455451724,34.84344897,0.437740980163975
63,3.558393,86.9648456698734,35.12628727,0.450960361046675
64,3.6422095,87.9113804390247,35.2205667,0.465555337562167
65,3.7280965,89.1547984440878,35.6212543,0.478690714736294
66,3.811789,90.0372097622262,35.71553373,0.493180659216432
67,3.8968855,88.19485794,36.13979119,0.48897500841226
68,3.9823405,89.6337820476226,36.37548977,0.505067192779334
69,4.067043,89.9455001933303,36.25764048,0.51902582290539
70,4.1542235,87.9804787212012,37.71897171,0.501482652758658
71,4.2380495,88.3810954939002,37.671832,0.514478224679014
72,4.3219785,88.288265328056,37.90753058,0.5213420910567
73,4.4078965,88.9417385293294,38.35535789,0.530309331632798
74,4.488522,89.0047241927212,38.87389478,0.534233868165923
75,4.57474,89.3341499057119,39.06245365,0.544255793307136
76,4.6600275,89.6058401575593,39.25101252,0.553803200556362
77,4.743242,90.5406987229213,39.25101252,0.569573519745063
78,4.828402,91.0637192773578,39.36886181,0.581654919885406
79,4.913377,91.1315529239683,39.43957139,0.591423245776629
80,4.993878,91.0248794618443,39.65170012,0.597657657551979
81,5.080172,90.6369164122357,40.19380686,0.598384992129687
82,5.1650775,90.9800718135828,40.170237,0.610996797585435
83,5.249179,91.8811011640053,40.47664517,0.623016193598962
84,5.33456,92.1125527493971,40.75948347,0.630956539964896
85,5.4211395,91.3026118613945,40.94804234,0.63304015018841
86,5.5034845,91.7485964206694,40.99518205,0.645155758448514
87,5.5895605,92.2785541055285,41.04232177,0.658379346785643
88,5.6730265,92.4554509313018,41.23088064,0.666853981796556
89,5.7582675,92.3764389697603,41.91440654,0.666773147302429
90,5.8417135,92.1923322050652,42.503653,0.666991603341643
91,5.92646,92.7771952965537,42.66864201,0.678681545028425
92,6.0090105,92.6499589071072,42.69221187,0.68686289090973
93,6.095571,92.9959503423342,42.73935159,0.69869143790566
94,6.178875,93.0352746999118,43.63500621,0.6959145286325
95,6.2645505,93.0354152149748,43.91784452,0.701617186076447
96,6.3477775,93.2550548863595,44.1535431,0.709309488712649
97,6.43204,93.9915473978251,44.22425268,0.723394100460315
98,6.5161295,93.840498830388,44.20068282,0.732012958799207
99,6.6013865,93.0429327708389,44.31853211,0.733586949855153
100,6.684899,93.022066284,44.34210197,0.742357352700692
101,6.7702035,93.0007998203935,44.50709098,0.749233425226847
102,6.85467,92.5689168445854,44.71921971,0.751939122308686
103,6.9398125,90.3674552887836,45.70915377,0.729118418992778
104,7.0240785,89.7381350892703,45.96842221,0.729220219559649
105,7.1090855,89.387293321789,45.94485236,0.735489506585356
106,7.1926835,89.438357841,45.9212825,0.744897405989659
107,7.27833,89.352129000203,47.5711726,0.730118349254852
108,7.361315,88.9062861305103,47.64188217,0.733800996827039
109,7.4469815,87.3827392820726,47.71259175,0.728670024134181
110,7.5301925,86.9052339696066,48.56110666,0.721519992338481
111,7.6118335,85.415610084,49.24463256,0.708071991299785
112,7.6995255,86.000773425,49.45676128,0.71840865839853
113,7.784311,86.5938758670532,49.503901,0.73071452800656
114,7.8670505,87.2932204028008,49.45676128,0.745071056661395
115,7.9497605,87.4716501881162,49.503901,0.753809748270275
116,8.0362205,87.4959944227624,50.16385704,0.753363131267631
117,8.118213,85.488783303,51.01237195,0.732644969422145
118,8.2070695,84.9850835697106,50.98880209,0.736601206743646
119,8.288908,85.1628702530317,50.98880209,0.745502696177535
120,8.3726335,85.6014061259066,50.98880209,0.756910602444207
121,8.458968,85.4972844643046,51.05951167,0.762849181682699
122,8.5432345,85.5448136843273,51.10665138,0.770247453866433
123,8.6252945,85.0672497527353,51.36591983,0.769847622717165
124,8.7112385,84.7487840011006,51.55593395,0.772078194353346
125,8.7951915,84.8216912451603,52.12285791,0.772661421413037
126,8.878577,84.5934445990761,52.56379877,0.772093548255708
127,8.9631315,83.3587540101947,53.00473963,0.762391027474904
128,9.0466875,83.1855537129,53.00473963,0.767899340185382
129,9.131839,83.1392891284435,52.94174808,0.775515212236518
130,9.2154735,83.2306590480877,53.44568049,0.77690599182663
131,9.2973675,82.124372106,54.03360164,0.765896578619449
132,9.383046,81.904852449,54.07559601,0.770355196658205
133,9.469249,81.758728422,54.18058193,0.774705761505878
134,9.553453,81.2206090115396,54.55853123,0.771654537681719
135,9.6361495,81.2467383,54.7265087,0.776453007695083
136,9.719937,80.9794725642451,54.87348899,0.778762465680815
137,9.8046675,81.2467383,55.31442985,0.782533561805698
138,9.890291,81.2661293786795,55.50340451,0.787154433835554
139,9.9741165,81.4172362449173,55.54539887,0.794764883077101
140,10.059847,81.1779158160049,55.50340451,0.799780062256791
141,10.14299,81.027218643,55.60839043,0.80353544919402
142,10.226576,80.8278442120106,56.11232284,0.801672859830132
143,10.31176,81.2266446460075,56.07032847,0.81288295483161
144,10.3953095,80.401809374886,56.46927496,0.80601931614278
145,10.4797055,80.1921960298207,56.53226651,0.809636463490279
146,10.561635,80.432020113409,56.59525807,0.817591011453123
147,10.6482375,79.9826140764184,56.82622709,0.816705899112574
148,10.727663,80.3167275043071,57.68711162,0.815175866167377
149,10.8165965,80.0241751433697,57.66611444,0.81920731953235
150,10.897363,79.6060108581578,58.1070553,0.815419526989366
151,10.981898,79.4808618007516,58.14904967,0.819921310549564
152,11.0678355,79.5857797855593,58.42201306,0.823956409393552
153,11.15211,79.5429553643335,58.90494829,0.823668897876076
154,11.2348895,78.5296544786619,59.11492012,0.816595861534208
155,11.319383,78.3834273076256,59.00993421,0.822518622702972
156,11.40468,78.4565302690943,59.68184409,0.821084860616934
157,11.4901975,78.9243284038151,59.63984972,0.832701499406817
158,11.5737195,78.788731368127,59.78683001,0.835460414173105
159,11.6587545,78.6247854184995,59.91281311,0.838257500099164
160,11.7422475,77.9442591169692,60.35375397,0.831443807106605
161,11.826389,77.6681462709669,60.43774271,0.833390301109989
162,11.9141815,77.7473623850943,60.87868357,0.834943938689454
163,11.996821,77.4663793468085,61.13064977,0.834581938373332
164,12.080446,77.7244584298431,60.98366948,0.845032198646837
165,12.1670565,77.7975613913119,61.15164696,0.849779989706165
166,12.2490025,77.9438375717806,61.23563569,0.856051128103356
167,12.334,77.5049504112483,61.15164696,0.858199739394601
168,12.417689,77.6651969494887,61.31962443,0.86366892230687
169,12.502078,77.370336981,61.57159063,0.863036854767843
170,12.5862575,77.370336981,61.63458218,0.868046168293691
171,12.673588,77.199998984079,61.63458218,0.872144813926294
172,12.754564,76.833510821636,62.20150615,0.866355709158749
173,12.8407545,77.4556647529403,62.45347235,0.876065977892906
174,12.9273995,77.699343391064,62.41147799,0.885290246593999
175,13.0099665,78.076474395005,62.45347235,0.894724766093104
176,13.0953955,77.4558755255341,62.74743293,0.88965584265651
177,13.178064,77.2957612807328,63.14637942,0.888313322707776
178,13.2611325,76.8833585401952,63.33535407,0.886741958821033
179,13.3480305,77.4286889573202,63.44033999,0.897536700438418
180,13.426732,77.004693297,63.73430057,0.894133804674442
181,13.508284,77.2209027351713,63.8182893,0.901014930588076
182,13.595624,77.1161882622995,63.8182893,0.905610878451263
183,13.6807105,76.492703175,63.88128085,0.90310333515684
184,13.7653795,76.4324573417862,64.04925832,0.905819014575816
185,13.849487,75.3011938472699,64.78415976,0.888625341411482
186,13.934627,75.0690700104828,65.47706682,0.882767013068269
187,14.017341,74.85728327324,65.58205274,0.884214355433841
188,14.102236,74.557501006573,65.56105556,0.886264756532714
189,14.187608,74.2121667675565,66.06498797,0.881347994083697
190,14.2703985,74.1389232910252,66.10698234,0.88510480216969
191,14.3554005,73.9522898177827,66.04399079,0.888905359556444
192,14.438155,73.2418925337563,66.4219401,0.880860495254652
193,14.5243085,73.8189414501986,66.40094291,0.893354847343821
194,14.6072885,73.6215872969463,66.33795136,0.896830258351017
195,14.691717,73.5076358806321,66.58991757,0.897518520843173
196,14.776365,73.110158808103,66.77889222,0.895497401176868
197,14.8611205,73.051107139374,67.11484716,0.89580683361322
198,14.9470065,72.8078194021962,66.98886406,0.899519985904478
199,15.0284215,73.0830812565144,67.13584435,0.906030032307193
200,15.1131485,72.8215903054563,67.55578802,0.902738837314686
201,15.1987925,72.543128637,67.76575986,0.901830532935535
202,15.2834715,72.293191099213,67.80775423,0.903220736158575
203,15.365073,71.7956738151414,68.12271199,0.897994616409264
204,15.449814,71.4730861459614,68.20670072,0.897881342879756
205,15.533966,71.299851147,68.31168664,0.899322190011301
206,15.617897,71.1092775929562,68.37467819,0.901007224908807
207,15.7027745,71.2707645289813,68.29068946,0.908978986597294
208,15.786585,70.304948231649,70.74735996,0.87282701961959
209,15.870493,70.3049926497843,70.76835715,0.877228734701947
210,15.953489,70.1442785466032,71.02032335,0.876945670863873
211,16.0380685,69.7925809825967,71.04132054,0.87693754258818
212,16.1222525,69.2221014656666,71.10431209,0.873626446336275
213,16.2037585,68.5371737113087,71.06231772,0.869825040850126
214,16.2876045,68.7229087850524,71.02032335,0.877169468685221
215,16.3735855,68.621457123195,71.04132054,0.880260202788659
216,16.4562,68.5080864526418,71.06231772,0.88300130813386
217,16.5391965,68.8740109532222,70.9573318,0.89340213794577
218,16.623057,69.0630032857106,71.41926985,0.895067048414217
219,16.708014,69.1363170197731,71.4822614,0.899870312269035
220,16.789875,69.4557782288023,71.7342276,0.905536732513043
221,16.874512,68.9128394506527,72.00719099,0.899852819043001
222,16.9571185,68.6823244899804,72.02818818,0.900992569695959
223,17.0416085,68.405544090659,72.17516846,0.900150865310626
224,17.126226,68.2853459469561,72.67910088,0.897293077781126
225,17.209576,68.0559889542617,72.95206427,0.895549302546722
226,17.2914335,68.1071508516932,72.97306145,0.900247911939694
227,17.375573,67.4937642701781,72.99405863,0.896244819399616
228,17.4590805,67.3251595415092,73.09904455,0.897119693841289
229,17.543511,67.082538930555,73.53998541,0.893269335577878
230,17.6285405,66.513497557535,73.87594035,0.886270853162594
231,17.7085955,66.8465417469449,74.00192346,0.893355473434349
232,17.7931375,66.838286487,74.12790656,0.896109455118498
233,17.8787535,66.6505729910695,74.02292064,0.899061265181545
234,17.9608165,66.7486730056414,74.12790656,0.903341431233407
235,18.045674,66.8619281463305,74.23289248,0.907968976081137
236,18.127834,66.734781874448,74.2118953,0.910604831472588
237,18.2108275,66.9679818900476,74.71582771,0.912283716576071
238,18.2950785,66.6689307074509,74.82081363,0.911235564402232
239,18.3779315,66.6416164371012,74.79981644,0.915223188678903
240,18.4608445,66.3600199800943,74.88380518,0.914524261155405
241,18.545318,65.9660976396862,75.13577138,0.910441161690896
242,18.6284675,65.2853137983903,75.61870661,0.899770866029173
243,18.7116875,64.631841771636,76.33261086,0.887044704834416
244,18.79574,64.6099162966555,76.47959115,0.88915178124198
245,18.8801915,64.4591085054086,76.45859396,0.891287303306206
246,18.9602085,64.6693950628366,76.35360805,0.89912076179459
247,19.041393,64.3130430975341,76.47959115,0.896633728918659
248,19.1263125,64.6649341366896,76.4165996,0.906247182172786
249,19.208158,64.790325999,76.87853764,0.906845861919302
250,19.2928045,64.7522815457237,76.85754046,0.910536249128732
251,19.375167,63.985865412,77.3194785,0.898628111750864
252,19.459767,63.7864580945063,77.23548977,0.90064020566153
253,19.540457,63.4383249790887,77.29848132,0.898763771886723
254,19.6262135,63.6577041210262,77.73942218,0.901095757405889
255,19.710738,63.235097381632,77.86540528,0.897628269662694
256,19.7926875,63.0914751847477,77.88640246,0.899089626487184
257,19.876524,62.9248243201634,77.99138838,0.899395788030062
258,19.959363,62.7606592695412,78.22235741,0.898336040620024
259,20.0427925,62.6876114036443,78.30634614,0.900150125692155
260,20.127337,62.5413352231755,78.57930953,0.898948904984068
261,20.2121755,62.4132206145844,79.29321378,0.89340375979552
262,20.293418,62.011078143,79.35620533,0.890562365740802
263,20.377762,61.5005072658472,79.60817154,0.884309517105319
264,20.463217,61.425914802,79.88113493,0.884142376202147
265,20.545414,61.29835243042,80.02811521,0.884347886994036
266,20.630048,61.6096382467297,80.1750955,0.890989057486563
267,20.7125805,61.3152810787175,80.40606452,0.887917048376248
268,20.7955795,61.5179170394277,80.51105044,0.893343686606749
269,20.879424,61.3175318823101,80.63703355,0.89273320407261
270,20.962531,61.3121552592153,80.78401383,0.894701097273209
271,21.047945,61.1144045459785,80.78401383,0.895449202886359
272,21.131068,61.2224606293388,80.74201946,0.901007867813833
273,21.214776,61.4955983144627,80.67902791,0.909268307266784
274,21.299026,61.3682216235026,80.80501102,0.909675809169012
275,21.381975,61.6220035722623,80.78401383,0.917215323208492
276,21.463733,61.4021915670548,80.80501102,0.917217840438251
277,21.548226,61.4111255916302,80.86800257,0.920299481833033
278,21.6315035,61.206617556,81.09897159,0.918355432751845
279,21.719761,60.7390057425466,81.602904,0.909831420629028
280,21.8004,60.7227786018145,81.64489837,0.912531066150933
281,21.883985,60.0897217266639,81.79187866,0.904973076500558
282,21.9702175,59.7773683802652,81.83387302,0.903387333996338
283,22.052127,59.9965251112012,82.14883078,0.906851089915137
284,22.1355115,59.6373802488619,82.88373222,0.897402587597966
285,22.2197935,59.7969702315378,82.88373222,0.903230088401285
286,22.306018,59.4310949539427,82.86273503,0.901398562080611
287,22.3887185,59.451127533,83.19868997,0.901660714457284
288,22.4744525,59.736056951776,83.13569842,0.910089570204064
289,22.5564625,59.3496671156409,83.36666744,0.905173316235928
290,22.640609,59.2966779885218,83.89159704,0.902475009160159
291,22.72455,59.1791020096508,84.29054353,0.900058188288848
292,22.8090245,58.9596526101821,84.31154072,0.899846162820239
293,22.8908095,58.8774436106372,84.60550129,0.898907905997267
294,22.975374,58.5227954438583,84.83647031,0.894529592779408
295,23.060048,57.6641386455538,85.1094337,0.882021064422822
296,23.1444885,57.5811574538071,85.44538864,0.880751582998231
297,23.22874,57.4348297013212,85.7603464,0.878705669906948
298,23.313413,57.3092794926293,85.84433513,0.879181673307987
299,23.397974,57.382382454098,85.92832387,0.882694440941493
300,23.4815575,57.4863457693157,85.82333795,0.888460335642135
301,23.564032,57.361094422069,86.34826755,0.884615714426798
302,23.6497875,57.3821716815033,86.62123094,0.885561510708239
303,23.733338,57.3488344828319,86.81020559,0.886377509823029
304,23.817739,56.985865923746,86.99918025,0.882115729782103
305,23.901277,56.9733028520903,86.99918025,0.885014497166135
306,23.9853705,56.5385123035806,87.0621718,0.8807580255141
307,24.0686655,56.9513126718431,86.83120277,0.892469695777302
308,24.1530605,56.6039918957893,87.08316898,0.887743934272309
309,24.236752,56.818226115,87.314138,0.891993162095289
310,24.3214155,57.0889167452521,87.27214363,0.89977570356839
311,24.4056635,57.1620197067201,87.27214363,0.904048638791051
312,24.488998,57.4838190607688,87.25114645,0.91244640143148
313,24.564932,57.0887059726573,87.39812674,0.907563679271232
314,24.6513865,57.1397480692521,87.48211547,0.910758570887962
315,24.734872,57.5784917250388,87.44012111,0.921270949233743
316,24.8209385,57.6004853220635,87.54510702,0.923798712738833
317,24.9038005,57.4097477625937,87.56610421,0.923607521612478
318,24.9872825,57.5272394964954,87.7130845,0.927153481379905
319,25.0726125,57.7017966824061,88.00704507,0.930244075299257
320,25.1544175,57.5719958930626,88.21701691,0.929118366674215
321,25.2391855,57.8196536914062,88.36399719,0.934811051607869
322,25.3240755,57.6905554773753,88.44798593,0.935034273816805
323,25.404944,57.6402862136295,88.30100564,0.938653847063282
324,25.4883935,57.3123356952455,88.4899803,0.934518719620472
325,25.5721115,57.3805557582801,88.63696058,0.937255987824066
326,25.6548245,56.7863298363706,88.72094932,0.929730387144625
327,25.7401025,56.9227221275218,88.82593524,0.934032954438194
328,25.8232675,56.6299005884108,89.2668761,0.927943984391489
329,25.907831,56.5063178041475,89.45585075,0.927124079463958
330,25.9907265,56.3830274748683,89.60283104,0.926643734440888
331,26.076447,56.2098075310915,89.95978316,0.923418536461903
332,26.158348,56.2797137748796,90.33773247,0.923855900627248
333,26.2439,55.9345493070999,90.71568178,0.917616321350451
334,26.3250175,55.7970210434901,90.96764799,0.915818993304016
335,26.408666,55.7471733249308,91.07263391,0.916921941276545
336,26.492844,55.650324812675,91.13562546,0.917654983977881
337,26.5773725,55.0844204704672,91.21961419,0.910439391325306
338,26.6582285,55.3060027946284,91.17761983,0.917276345599827
339,26.7440885,55.3316116648404,91.78653816,0.914960603705549
340,26.8267695,55.1851949693081,92.03850436,0.913023140327425
341,26.9088065,54.6957926436696,91.82853253,0.90962912602502
342,26.9934085,54.7953826944911,91.97551281,0.912787876335091
343,27.0736865,54.5516974363565,92.10149591,0.910268095620797
344,27.159173,54.819270255183,92.43745086,0.914509442863398
345,27.2436545,54.8438955199522,92.33246494,0.918739820774873
346,27.32441,54.6482282948805,92.22747902,0.919150714154835
347,27.4072425,54.6240284191732,92.47944522,0.919186030975981
348,27.489923,54.843438846,92.43745086,0.926054623988628
