Time,Disp,Force,CrackExt,G_I
29,0,0,35,0
30,0.0942057987214469,2.303881412,35,0.000258813473686594
31,0.182757782782119,4.412708377,35,0.000961679221357498
32,0.268674222919046,6.6556862435,35,0.00213239652884095
33,0.360996180679344,9.0692904155,35,0.00390413692703403
34,0.450680302738569,11.1659589125,35,0.00600086321713209
35,0.53697374024545,13.384397432,35,0.00857039811870759
36,0.630049692745686,15.8102712775,35,0.0118785450929338
37,0.725386483577012,18.101957153,35,0.0156582822182421
38,0.81243162404651,20.2960787365,35,0.019662923242669
39,0.894958525519755,22.6609748995,35,0.0241841386547066
40,0.989918318981132,25.123324149,35,0.0296568887324256
41,1.07696460533928,27.536928321,35,0.0353643800599784
42,1.17116925817207,30.3527627865,35,0.0423903514042303
43,1.25595585208777,32.998008015,35,0.0494209651269551
44,1.34903180458799,35.5090652735,35,0.0571229402820228
45,1.4413537623483,38.190860043,35,0.0656415986645574
46,1.53141488177748,40.677637434,35,0.0742844152409765
47,1.61808417076567,43.2374027015,35,0.0834276156845106
48,1.71417495633693,45.7485711655,35,0.0935151134947816
49,1.80423722165478,48.41813333,35,0.104171952673745
50,1.88902152379316,50.8683241115,35,0.114586501760373
51,1.98247561955201,53.696391182,35,0.126941047748248
52,2.06839091380026,56.292817196,35,0.138846433849999
53,2.16410241022425,59.0599436525,35,0.152412280661956
54,2.25266012372823,61.485669224,35,0.165165258142139
55,2.34309709463872,63.9114689325,35,0.178573992998726
56,2.44069472380117,66.4591869375,35,0.193427229307352
57,2.51982750305609,69.0312218785,35,0.207427100785223
58,2.61441029914751,71.6885885065,35,0.223497618621201
59,2.70673111101915,74.0047025235,35,0.238865570862596
60,2.79754851696558,76.2963513305,35,0.254525044109379
61,2.8834649571025,78.6490890255,35,0.270431638351418
62,2.97691790697269,80.258121405,35,0.284908215995677
63,3.06509403955207,76.235447785,35,0.278644120649361
64,3.14611180565681,77.7591484775,35,0.291725755542538
65,3.2418255938581,78.795324258,35,0.30460653648132
66,3.33904507976193,78.271101531,35,0.31165410600128
67,3.41968699438537,79.08786886,35,0.322511610892017
68,3.51276180099694,79.770522356,35,0.334149074192474
69,3.60395276664734,80.7944655315,35,0.347224073429538
70,3.70192853906842,81.2942230485,35,0.358869740429201
71,3.78445314876434,81.440458281,35,0.367529722560163
72,3.87225457575108,82.7448617275,35,0.382079785243228
72,3.96382253877146,83.9515896765,35,0.396818811280219
73,4.06292586563643,83.5737133875,35.6600041974757,0.39973918119553
74,4.15562596665536,84.000334754,36.246674595232,0.406334969004755
75,4.23551274065021,83.183641562,36.7966780931284,0.405849766474716
76,4.32745884692921,83.720022757,37.3466815910249,0.413033608234423
77,4.41789810961701,84.561107022,37.5666829901834,0.42415356206974
78,4.50720294252896,84.036958432,37.8233512892018,0.427995673128133
79,4.59802034847539,83.2323866395,38.1533533879396,0.429805560061367
80,4.69599382911915,84.171072265,38.3366878872385,0.442417372980251
81,4.78680894328825,85.0730600755,38.6666899859763,0.453055880874917
82,4.87310238079515,85.792300181,38.9600251848544,0.462641509599394
83,4.95524999312111,85.9141443405,39.2166934838728,0.468919846287018
84,5.05096378132241,86.2311541525,39.7666969817692,0.475012048245563
85,5.140273197789,86.9503571895,39.9866983809278,0.485528497590721
86,5.22769648151711,87.3160008735,40.1700328802266,0.494245008263381
87,5.32680095427074,87.413528097,40.6100356785438,0.500260551429182
88,5.40442688993448,87.6817186945,41.1967060763,0.503888684325924
89,5.50126937846834,88.266844967,41.6000419747574,0.512727050988389
90,5.58794095923385,88.70566187,42.0033778732148,0.519756524555049
91,5.67875721929163,88.961656931,42.5533813711112,0.524754748278769
92,5.77183317179185,89.437097512,42.9933841694284,0.532208742780401
93,5.8634022807009,89.522429199,43.0667179691479,0.540496432673249
94,5.95308640276011,89.7539961185,43.2867193683065,0.548142529251215
95,6.04163953270946,90.0953228665,43.4333869677456,0.557034451043818
96,6.13094780328738,90.4366496145,43.5800545671846,0.566014042268368
97,6.21912393586676,91.204597729,43.836722866203,0.576547507302116
98,6.31295388310691,91.8872141565,43.8733897660627,0.589265402413205
99,6.40527469497854,92.252894909,44.2767256645201,0.596247610636455
100,6.49910578810736,92.4601448925,44.1300580650811,0.607819414634923
101,6.58577507709555,92.716102885,44.4233932639592,0.614633202888685
102,6.67998316759432,91.814078006,44.9733967618556,0.611794068874895
103,6.7677834486924,91.9359963025,45.0467305615752,0.619913214117753
104,6.85257004260809,91.996899848,45.0467305615752,0.628095278790923
105,6.94300701351858,91.923800766,45.1933981610142,0.634355601603085
106,7.03683696075873,91.9969369165,45.6334009593314,0.638848697738488
107,7.12237640352569,91.838469079,45.8900692583497,0.642824993194075
108,7.20942383577251,92.0700359985,46.2934051568071,0.648100453794323
109,7.30589161871373,92.228577973,47.1734107534414,0.648743241599555
110,7.39482174603303,92.630845335,47.1367438535817,0.659886845788191
111,7.48865169327318,93.1549568565,47.1734107534414,0.671651067381137
112,7.5794668074423,93.654751442,48.016749450216,0.674444159957467
113,7.66575909906052,93.9716500485,48.2000839495148,0.682477204235555
114,7.76034189515193,93.740083129,48.2000839495148,0.689195319805963
115,7.84663533265883,93.313424694,48.786754347271,0.687408558678211
116,7.93707459534664,93.410914849,48.6034198479722,0.698032381141628
117,8.02977584225422,93.7765956015,48.6034198479722,0.708949607347845
118,8.11568884472516,93.874196962,48.8967550468503,0.71404000008622
119,8.21291291418363,93.849805889,49.0067557464296,0.721184432662449
120,8.29242154491986,92.5332439745,49.3367578451675,0.71432661039923
121,8.39152830945082,92.4602190295,49.3367578451675,0.722293409001045
122,8.48083772591741,92.9111944005,49.6667599439053,0.729856463450457
123,8.56524503068582,93.435380059,49.7767606434846,0.740040090907841
124,8.66434950343946,92.8258627135,49.8500944432041,0.742891443453174
125,8.74913724324382,92.7893131725,50.6934331399787,0.740388073198276
126,8.83919721678434,92.7039073485,50.803433839558,0.746090820186427
127,8.92398495658871,92.301677055,51.1701028381556,0.745887090844071
128,9.02158258575116,92.2406993725,51.5367718367533,0.749457054481268
129,9.1090047235906,91.9847043115,51.3901042373142,0.756261044992444
130,9.19793714268723,92.0334864575,51.6834394361923,0.760739633406132
131,9.29515662859106,91.8262735425,52.2701098339485,0.760460871999443
132,9.38559589127887,91.667805705,52.6367788325462,0.762441650726631
133,9.47377431563557,91.631256164,53.0767816308633,0.764399873835719
134,9.57061795005809,91.7775655335,53.5901182289,0.76774386490625
135,9.65163571616284,91.692196778,53.6267851287598,0.773115660433975
136,9.74584266077294,90.875503586,54.1767886266562,0.767647276686943
137,9.83590378020214,90.4731991555,54.2501224263757,0.770506496420031
138,9.91579170008564,90.5219813015,54.5801245251136,0.773551197165133
139,10.0088687984745,91.070483896,54.836792824132,0.782698416009961
140,10.1023194565674,91.35087003,55.0201273234308,0.790393786471921
141,10.1976585391761,91.619023559,55.2767956224491,0.797314744781126
142,10.2782981620222,91.9238378345,55.7167984207663,0.801348491135621
143,10.3713752604111,91.972508775,56.1568012190834,0.804102055296484
144,10.4659592023911,91.9481547705,56.7434716168397,0.804680632720971
145,10.5571501680415,92.0945012085,56.5601371175408,0.81503708371226
146,10.6498491231718,92.033523526,56.7434716168397,0.819579331512836
147,10.7346357170875,91.2045606605,57.2934751147361,0.812522528432583
148,10.8235681361841,90.887662054,57.2934751147361,0.816407398926912
149,10.9166429427957,91.0095803505,57.3668089144556,0.823708643697147
150,11.0067052081136,90.863270981,57.623477213474,0.826279599280199
151,11.0952594839515,90.5585308425,57.623477213474,0.830133920401493
152,11.1898434259316,89.571137208,57.6601441133337,0.827670116634654
153,11.2772667096597,88.2058672845,57.7334779130533,0.82060568968341
154,11.3631842956853,87.3526245515,57.9168124123521,0.816828971419627
155,11.4570142429255,87.084433954,58.5401497099681,0.814182102682687
156,11.5478270653173,87.047810276,58.7968180089864,0.817476777431916
157,11.6461821268856,86.9869067305,58.7234842092669,0.824670776601392
158,11.727197601213,86.730874601,58.6134835096876,0.829183496702061
159,11.8172610124196,86.194567543,59.2734877071633,0.823106838321105
160,11.914481644212,85.999513096,60.0801595040781,0.819224794496111
161,12.0045439095299,86.353072449,60.1901602036574,0.827614663056432
162,12.0878225139657,86.6821295235,59.9701588044988,0.838953176207708
163,12.1741159514726,86.3164117025,60.1168264039379,0.839756896146065
164,12.2724698671523,85.975122023,60.1168264039379,0.843194068218478
165,12.3602690023617,85.6459908115,60.556829202255,0.841115129366566
166,12.4484462808298,85.280310059,61.2901671994503,0.83549856291819
167,12.5354937130766,84.9999609935,61.180166499871,0.839769800604314
168,12.6327154907577,84.8658471605,61.5468354984687,0.8409538765383
169,12.7223984669283,84.9511788475,61.3635009991698,0.84978386685318
170,12.8105780371737,84.939057448,62.0601720965053,0.847918972789809
171,12.8976266153091,84.4270302575,62.8301769935604,0.840249248224479
172,13.0023837568349,82.842388951,62.9401776931397,0.830017110799281
173,13.0815176819785,82.196284996,63.1235121924385,0.826636728867045
174,13.1708259525564,81.586804719,63.3801804914568,0.823438782429326
175,13.27030742268,81.5623765775,63.7468494900545,0.825597822158187
176,13.3566008601869,81.3673221305,63.6735156903349,0.829741968430028
177,13.4466631255047,81.355126594,64.0035177890728,0.831767806908856
178,13.5333335603816,81.0870101335,64.0768515887923,0.833606271994125
179,13.6271646535104,80.7822329265,64.7735226861278,0.829021175294083
180,13.7104432579462,80.599374016,65.1401916847255,0.828440178020075
181,13.8050260540377,80.4043566375,65.5068606833231,0.828394839626994
182,13.8916964889145,79.9289901935,65.1401916847255,0.832410598398391
183,13.9821346057137,79.526685763,65.6168613829024,0.828745965259645
184,14.0676751943693,79.5754308405,65.5801944830426,0.834702044776392
185,14.1633901284592,79.514527295,65.9101965817805,0.836356152440971
186,14.2564672268481,79.551076836,65.9835303815,0.841486269081697
187,14.3536878586406,79.356022389,66.3868662799574,0.841011333564538
188,14.4298080966018,79.19759162,66.8268690782746,0.839302598329237
189,14.5225059058434,78.819715331,67.0102035775734,0.838808019321386
190,14.61219231968,78.6612474935,67.3402056763113,0.838957364467463
191,14.7022522932205,78.551561802,67.4502063758906,0.841840345122002
192,14.7987212220504,78.344348887,67.4135394760308,0.845500173795557
193,14.884638808076,78.1614158395,67.6702077750491,0.845821529879368
194,14.9746987816165,77.8567127695,68.000209873787,0.844293144435058
195,15.0628783518619,78.210160917,68.1468774732261,0.851633798572774
196,15.1518096250698,77.978556929,68.5502133716834,0.850051961267571
197,15.2478992647524,77.9664355295,68.9168823702811,0.851617935987067
198,15.3368316838491,77.8932623105,69.2835513688787,0.852102958574662
199,15.4280249412768,77.6128761765,69.246884469019,0.854451338148932
200,15.524492724218,76.4182325585,69.7602210670556,0.841494280127016
201,15.6171928252369,75.857571496,70.0902231657935,0.837088370664236
202,15.6963278962692,75.601576435,70.163556965513,0.837777433610585
203,15.7950542257642,75.3820938465,70.5302259641107,0.837038593371404
204,15.8783339760887,75.0529997035,71.0435625621473,0.83283931540044
205,15.9729190639575,74.97993769,71.3002308611657,0.834524905888042
206,16.0592125014643,74.8945689345,71.3735646608852,0.837374958777476
207,16.1511574618547,74.382615881,71.6668998597633,0.833614770757869
208,16.2363233449177,73.7852570035,71.556899160184,0.832324499995506
209,16.3312819924904,73.6024351615,71.3368977610255,0.837220956401121
210,16.4254889371005,73.334244564,72.033568858361,0.832345028071823
211,16.5102755310162,73.139264254,71.9969019585012,0.83476461926682
212,16.5950621249319,73.3098905595,72.1069026580805,0.839959240116833
213,16.6885162206907,73.309853491,72.6569061559769,0.839450540798957
214,16.7740556634577,73.334244564,72.7669068555562,0.842988413652429
215,16.866754618588,73.261071345,72.6202392561172,0.848202252436238
216,16.9556870376846,73.114799044,72.9135744549953,0.848165580654024
217,17.0434884646713,73.053932567,73.0235751545746,0.850795670971873
218,17.1365644171716,73.456125792,73.3169103534527,0.857327545603852
219,17.2315253565216,73.322086096,74.0502483506479,0.853499948618659
220,17.3230944654306,73.224595941,74.3069166496663,0.854459990075108
221,17.407882205235,72.9685638115,75.1135884465811,0.848066972271459
222,17.4971904758129,72.6637866045,75.2602560460201,0.847493655365633
223,17.5925295584216,72.334655393,75.3702567455994,0.847230975665722
224,17.6803298395197,72.0664647955,75.8469264437763,0.843901302113865
225,17.7711460995774,71.9324250995,75.7369257441971,0.847673274758388
226,17.8612072190066,70.7987962325,75.7369257441971,0.83854241362407
227,17.9531533252856,70.1039101315,76.0669278429349,0.831595962661245
228,18.0435925879734,70.030773981,75.8102595439166,0.837246557390782
229,18.1359156916224,69.847952139,75.8102595439166,0.839333578008547
230,18.2195724393169,69.701679838,75.7735926440568,0.84177550324254
231,18.3160402222581,69.7016427695,76.360263041813,0.840858525623782
232,18.4076104770558,69.8723061435,76.5802644409716,0.84511906947181
233,18.4939039145627,69.701679838,76.83693273999,0.844666503893065
234,18.5798203546996,69.847952139,76.7269320404107,0.851379805492524
