Disp,Force
0,0
0.000507266,2.669033161
0.001475491,7.763445375
0.002446794,12.87405213
0.003421196,18.00096746
0.004398717,23.14428993
0.005379372,28.30410341
0.006363174,33.48047637
0.007350134,38.67346262
0.008340258,43.883102
0.009333552,49.10941968
0.010330019,54.35242696
0.011329657,59.61212187
0.012332463,64.88848857
0.013338433,70.18149801
0.014347558,75.49110869
0.015359827,80.81726589
0.016375229,86.15990246
0.017393747,91.51893948
0.018415365,96.89428557
0.019440063,102.2858376
0.02046782,107.6934814
0.021498611,113.117091
0.02253241,118.5565295
0.02356919,124.0116495
0.02460892,129.4822927
0.025651568,134.9682904
0.026697101,140.469464
0.027745481,145.9856249
0.028796673,151.5165747
0.029850636,157.0621059
0.030907329,162.6220013
0.031966709,168.1960349
0.033028731,173.7839722
0.03409335,179.3855698
0.035160517,185.0005758
0.036230183,190.6287307
0.037302297,196.2697666
0.038376807,201.9234081
0.039453659,207.5893724
0.040532798,213.2673694
0.041614167,218.9571015
0.042697709,224.6582649
0.043783364,230.3705489
0.044871073,236.093636
0.045960773,241.8272032
0.047052402,247.5709208
0.048145897,253.3244535
0.049241193,259.0874605
0.050338223,264.8595956
0.051436922,270.640507
0.05253722,276.4298384
0.053639051,282.2272282
0.054742343,288.0323104
0.055847027,293.8447148
0.056953031,299.6640664
0.058060283,305.4899865
0.059168712,311.3220927
0.060278242,317.1599985
0.061388801,323.0033141
0.062500313,328.8516467
0.063612703,331.7411808
0.064725896,335.2515424
0.065839815,338.469448
0.066954383,352.5115616
0.068069522,359.8249632
0.069185156,361.1415712
0.070301206,363.4818864
0.071417593,369.4057328
0.072534239,376.2805616
0.073651064,385.9342784
0.07476799,390.1761136
0.075884937,411.677968
0.077001825,418.9913696
0.078118574,418.5525744
0.079235104,419.284048
0.080351336,421.9168192
0.081467189,433.0334832
0.082582582,445.9782752
0.083697437,459.80088
0.084811672,462.4338736
0.085925207,460.3860144
0.087037964,458.7040032
0.088149861,455.99784
0.089260819,455.6322144
0.090370759,461.3367744
0.091479601,461.7024
0.092587267,464.9934752
0.093693677,481.3027344
0.094798754,486.8609552
0.095902418,507.997184
0.097004593,525.1838112
0.098105201,540.3228016
0.099204165,557.5096512
0.100301409,562.6292992
0.101396855,560.8007264
0.10249043,562.1173344
0.103582058,560.6546096
0.104671665,558.8992064
0.105759176,556.9976864
0.106844518,556.2664352
0.107927619,555.169336
0.109008407,556.4857216
0.11008681,567.9680112
0.111162758,572.0637296
0.11223618,587.7146848
0.113307009,602.3417104
0.114375175,600.4401904
0.115440611,597.953536
0.11650325,596.4176416
0.117563027,600.4401904
0.118619876,610.0941296
0.119673733,612.87324
0.120724536,617.2614144
0.121772221,623.7703952
0.122816728,661.9471344
0.123857997,666.9202208
0.124895968,663.8486544
0.125930583,660.9963744
0.126961785,660.41124
0.127989518,661.1424912
0.129013726,671.527904
0.130034357,672.9904064
0.131051357,670.8696
0.132064675,673.8682192
0.13307426,690.543104
0.134080063,703.6342352
0.135082037,712.410584
0.136080134,720.2359504
0.137074309,743.3468688
0.138064519,749.197768
0.139050719,744.4437456
0.140032869,739.32432
0.141010928,748.1006688
0.141984858,747.296248
0.142954621,747.1499088
0.14392018,766.8234128
0.144881502,762.6545248
0.145838553,756.5111696
0.1467913,745.1020496
0.147739715,732.376544
0.148683767,732.5226608
0.149623429,732.2302048
0.150558676,730.5481936
0.151489484,729.81672
0.152415828,746.0528096
0.153337688,754.244024
0.154255044,790.4460736
0.155167879,791.7624592
0.156076175,788.471384
0.156979917,784.8878528
0.157879093,787.7401328
0.15877369,781.2309296
0.159663699,778.1593632
0.160549111,780.572848
0.161429919,804.341848
0.162306119,807.3404672
0.163177707,806.8285024
0.164044682,797.686528
0.164907043,791.5431728
0.165764793,787.3013376
0.166617936,784.0832096
0.167466476,779.0369536
0.168310421,774.5756096
0.169149781,771.65016
0.169984565,770.6264528
0.170814786,780.2801696
0.17164046,803.098632
0.172461601,820.212312
0.173278228,813.191144
0.174090362,810.8508288
0.174898023,810.046408
0.175701236,804.7074736
0.176500026,804.1955088
0.17729442,798.4177792
0.178084448,794.6879088
0.178870141,782.6204848
0.179651532,776.111504
0.180428656,767.7010032
0.18120155,756.2187136
0.181970254,743.4929856
0.182734807,734.4973504
0.183495253,724.6972944
0.184251636,718.0419744
0.185004003,706.5596848
0.185752403,720.3822896
0.186496887,704.0730304
0.187237506,687.8369408
0.187974316,674.5263008
0.188707373,648.2706464
0.189436736,630.5720544
0.190162465,608.7775216
0.190884623,584.1309312
0.191603275,563.1410416
0.192318486,548.0020512
0.193030326,535.0572592
0.193738866,523.3554608
0.194444177,516.3345152
0.195146335,510.6299552
0.195845416,523.5018
0.196541499,508.2164704
0.197234665,493.5162752
0.197924997,478.9624192
0.198612578,476.0369696
0.199297497,450.5127888
0.199979842,427.2557536
0.200659704,410.1420736
0.201337175,398.4404976
0.202012352,390.9805344
0.202685331,385.349144
0.203356211,383.6671328
0.204025093,376.5730176
0.204692081,371.5997088
0.205357279,382.1312384
0.206020795,372.404352
0.206682738,364.7251024
0.20734322,358.6549168
0.208002354,355.3638416
0.208660255,362.5311264
0.209317041,354.9979936
0.209972831,348.8546384
0.210627747,345.8562416
0.211281912,350.4637024
0.211935452,349.586112
0.212588495,339.420208
0.213241169,330.0589472
0.213893607,322.964832
0.214545942,317.918576
0.215198309,313.3111152
0.215850848,317.4797808
0.216503696,318.2842016
0.217156995,313.0916064
0.21781089,318.7229968
0.218465526,311.7752208
0.21912105,294.9539968
0.219777612,284.4956368
0.220435363,276.74344
0.221094457,270.5269152
0.221755049,265.33432
0.222417296,261.3119936
0.223081358,258.971456
0.223747396,257.8745792
0.224415573,260.0685552
0.225086055,263.140344
0.225759007,263.8715952
0.226434599,261.3849408
0.227113002,254.3639952
0.227794389,249.0252832
0.228478933,246.3922896
0.229166811,242.2967936
0.229858202,239.9564784
0.230553285,238.128128
0.231252243,236.7383504
0.231955259,234.5443744
0.232662518,233.5936144
0.233374209,233.4472752
0.23409052,232.3503984
0.234811642,230.522048
0.235537768,229.0593232
0.236269093,227.3770896
0.237005812,227.3770896
0.237748124,225.9143648
0.238496228,232.2040592
0.239250326,231.9847728
0.240010622,229.3517792
0.240777319,224.817488
0.241550624,221.014448
0.242330745,217.7965424
0.243117893,217.7233728
0.243912279,219.405384
0.244714115,217.2845776
0.245523617,212.0188128
0.246341,206.9723344
0.247166483,203.0231776
0.248000286,200.2440672
0.248842628,198.488664
0.249693732,196.5141968
0.250553824,194.9783024
0.251423127,194.0275424
0.252301869,193.2960688
0.253190279,196.294688
0.254088586,200.3172368
0.254997023,199.0006288
0.255915821,198.854512
0.256845215,196.1483488
0.25778544,196.4410272
0.258736735,192.1260224
0.259699335,187.1527136
0.260673482,183.7155216
0.261659417,181.4481536
0.262657381,178.888552
0.263667619,177.7182832
0.264690374,177.3526576
0.265725894,178.8153824
0.266774424,181.5944928
0.267836215,181.8871712
0.268911514,179.9124816
0.270000574,176.987032
0.271103646,173.183992
0.272220983,168.9421568
0.273352839,165.4315728
0.274499469,163.7495616
0.27566113,166.1630464
0.276838079,166.528672
0.278030574,164.7734912
0.279238874,161.482416
0.280463241,158.3374576
0.281703934,155.5583472
0.282961217,153.3643712
0.284235351,152.1941024
0.285526602,150.073296
0.286835233,149.0493664
0.28816151,148.3910624
0.2895057,147.3673552
0.29086807,147.513472
0.292248887,149.4881616
0.293648421,149.7076704
0.29506694,149.8537872
0.296504715,150.365752
0.297962016,149.7076704
0.299439114,153.3643712
0.300936282,151.6821376
0.302453792,147.9522672
0.303991916,145.0999872
0.305550929,143.0523504
0.307131104,141.7359648
0.308732716,140.565696
0.31035604,141.8820816
0.312001351,148.6837408
0.313668924,147.5866416
0.315359037,144.368736
0.317071965,141.0776608
0.318807984,138.5910064
0.320567373,136.8358256
0.322350408,135.811896
0.324157366,133.3984112
0.325988526,131.7164
0.327844165,130.4729616
0.32972456,129.6685408
0.331629991,129.0834064
0.333560734,130.2536752
0.335517068,134.56868
0.337499271,132.5939904
0.339507622,130.4000144
0.341542397,128.4253248